#      n =  0
#  kappa =  1
# energy =  2.00000000E+03
#     dn =  0.00000000E+00
#SelfEne =  2.72113860E+32
#     vc = -2.00730830E+02
#  ilast =  251
#    ifm =    0
#    cfm =  0.00000000E+00
#    xfm =  0.00000000E+00
#    rfn =  0.00000000E+00
#    pdx =  1.99465447E+00
#   bqp0 =  2.16966113E+04
#   bqp1 =  0.00000000E+00
#    idx = 4
# LEPTON = 0
#   MASS =  1.00000000E+00
# CHARGE =  1.00000000E+00
#  EUNIT =  2.72113860E+01
#  RUNIT =  4.13413733E+16
#  LUNIT =  5.29177211E-01
#    AMU =  1.82288849E+03
#    FSC =  7.29735257E-03
#  phase =  3.46629901E+00


0    3.84615385E-08 -1.749939E-02 -5.045507E-07  2.647658E-12  5.733105E-08  0.000000E+00  0.000000E+00
1    4.21520013E-08 -1.917849E-02 -5.529495E-07  3.178574E-12  6.283118E-08  0.000000E+00  0.000000E+00
2    4.61964108E-08 -2.101863E-02 -6.059897E-07  3.816367E-12  6.885971E-08  0.000000E+00  0.000000E+00
3    5.06286098E-08 -2.303521E-02 -6.641158E-07  4.582501E-12  7.546650E-08  0.000000E+00  0.000000E+00
4    5.54857553E-08 -2.524514E-02 -7.278151E-07  5.502756E-12  8.270663E-08  0.000000E+00  0.000000E+00
5    6.08085623E-08 -2.766693E-02 -7.976213E-07  6.608089E-12  9.064080E-08  0.000000E+00  0.000000E+00
6    6.66416438E-08 -3.032088E-02 -8.741194E-07  7.935677E-12  9.933536E-08  0.000000E+00  0.000000E+00
7    7.30338842E-08 -3.322925E-02 -9.579504E-07  9.530161E-12  1.088638E-07  0.000000E+00  0.000000E+00
8    8.00387086E-08 -3.641633E-02 -1.049816E-06  1.144514E-11  1.193055E-07  0.000000E+00  0.000000E+00
9    8.77149216E-08 -3.990887E-02 -1.150486E-06  1.374498E-11  1.307466E-07  0.000000E+00  0.000000E+00
10   9.61268296E-08 -4.373615E-02 -1.260802E-06  1.650698E-11  1.432856E-07  0.000000E+00  0.000000E+00
11   1.05344527E-07 -4.793006E-02 -1.381689E-06  1.982391E-11  1.570257E-07  0.000000E+00  0.000000E+00
12   1.15445516E-07 -5.252584E-02 -1.514157E-06  2.380721E-11  1.720815E-07  0.000000E+00  0.000000E+00
13   1.26513941E-07 -5.756179E-02 -1.659314E-06  2.859061E-11  1.885806E-07  0.000000E+00  0.000000E+00
14   1.38642593E-07 -6.308011E-02 -1.818374E-06  3.433474E-11  2.066591E-07  0.000000E+00  0.000000E+00
15   1.51932674E-07 -6.912687E-02 -1.992666E-06  4.123237E-11  2.264702E-07  0.000000E+00  0.000000E+00
16   1.66495275E-07 -7.575258E-02 -2.183647E-06  4.951499E-11  2.481760E-07  0.000000E+00  0.000000E+00
17   1.82452417E-07 -8.301280E-02 -2.392913E-06  5.946051E-11  2.719604E-07  0.000000E+00  0.000000E+00
18   1.99936825E-07 -9.096789E-02 -2.622210E-06  7.140242E-11  2.980247E-07  0.000000E+00  0.000000E+00
19   2.19094476E-07 -9.968425E-02 -2.873452E-06  8.574111E-11  3.265805E-07  0.000000E+00  0.000000E+00
20   2.40085694E-07 -1.092348E-01 -3.148736E-06  1.029573E-10  3.578676E-07  0.000000E+00  0.000000E+00
21   2.63085313E-07 -1.196992E-01 -3.450359E-06  1.236279E-10  3.921518E-07  0.000000E+00  0.000000E+00
22   2.88284726E-07 -1.311644E-01 -3.780832E-06  1.484451E-10  4.297136E-07  0.000000E+00  0.000000E+00
23   3.15894545E-07 -1.437262E-01 -4.142911E-06  1.782402E-10  4.708694E-07  0.000000E+00  0.000000E+00
24   3.46143812E-07 -1.574890E-01 -4.539611E-06  2.140103E-10  5.159590E-07  0.000000E+00  0.000000E+00
25   3.79285711E-07 -1.725677E-01 -4.974235E-06  2.569527E-10  5.653554E-07  0.000000E+00  0.000000E+00
26   4.15595029E-07 -1.890874E-01 -5.450399E-06  3.085035E-10  6.194831E-07  0.000000E+00  0.000000E+00
27   4.55373132E-07 -2.071853E-01 -5.972059E-06  3.703859E-10  6.787761E-07  0.000000E+00  0.000000E+00
28   4.98952461E-07 -2.270125E-01 -6.543556E-06  4.446690E-10  7.437286E-07  0.000000E+00  0.000000E+00
29   5.46693778E-07 -2.487331E-01 -7.169631E-06  5.338334E-10  8.148974E-07  0.000000E+00  0.000000E+00
30   5.98992705E-07 -2.725270E-01 -7.855482E-06  6.408560E-10  8.928513E-07  0.000000E+00  0.000000E+00
31   6.56285618E-07 -2.985928E-01 -8.606803E-06  7.693097E-10  9.782450E-07  0.000000E+00  0.000000E+00
32   7.19044757E-07 -3.271451E-01 -9.429814E-06  9.234774E-10  1.071804E-06  0.000000E+00  0.000000E+00
33   7.87790328E-07 -3.584205E-01 -1.033133E-05  1.108499E-09  1.174275E-06  0.000000E+00  0.000000E+00
34   8.63093418E-07 -3.926785E-01 -1.131882E-05  1.330539E-09  1.286509E-06  0.000000E+00  0.000000E+00
35   9.45576450E-07 -4.302022E-01 -1.240045E-05  1.596991E-09  1.409460E-06  0.000000E+00  0.000000E+00
36   1.03591867E-06 -4.713001E-01 -1.358515E-05  1.916720E-09  1.544130E-06  0.000000E+00  0.000000E+00
37   1.13486866E-06 -5.163124E-01 -1.488271E-05  2.300360E-09  1.691614E-06  0.000000E+00  0.000000E+00
38   1.24324265E-06 -5.656100E-01 -1.630382E-05  2.760658E-09  1.853152E-06  0.000000E+00  0.000000E+00
39   1.36193260E-06 -6.195976E-01 -1.786020E-05  3.312896E-09  2.030073E-06  0.000000E+00  0.000000E+00
40   1.49191597E-06 -6.787191E-01 -1.956465E-05  3.975399E-09  2.223828E-06  0.000000E+00  0.000000E+00
41   1.63426233E-06 -7.434597E-01 -2.143119E-05  4.770127E-09  2.435997E-06  0.000000E+00  0.000000E+00
42   1.79014344E-06 -8.143505E-01 -2.347515E-05  5.723407E-09  2.668346E-06  0.000000E+00  0.000000E+00
43   1.96083495E-06 -8.919696E-01 -2.571329E-05  6.866777E-09  2.922775E-06  0.000000E+00  0.000000E+00
44   2.14774031E-06 -9.769524E-01 -2.816396E-05  8.238042E-09  3.201361E-06  0.000000E+00  0.000000E+00
45   2.35238607E-06 -1.069989E+00 -3.084720E-05  9.882478E-09  3.506404E-06  0.000000E+00  0.000000E+00
46   2.57644835E-06 -1.171837E+00 -3.378494E-05  1.185433E-08  3.840370E-06  0.000000E+00  0.000000E+00
47   2.82175649E-06 -1.283321E+00 -3.700115E-05  1.421857E-08  4.206011E-06  0.000000E+00  0.000000E+00
48   3.09031051E-06 -1.405341E+00 -4.052203E-05  1.705299E-08  4.606295E-06  0.000000E+00  0.000000E+00
49   3.38429828E-06 -1.538881E+00 -4.437622E-05  2.045072E-08  5.044479E-06  0.000000E+00  0.000000E+00
50   3.70611010E-06 -1.685012E+00 -4.859500E-05  2.452325E-08  5.524129E-06  0.000000E+00  0.000000E+00
51   4.05835855E-06 -1.844901E+00 -5.321259E-05  2.940400E-08  6.049142E-06  0.000000E+00  0.000000E+00
52   4.44389693E-06 -2.019818E+00 -5.826632E-05  3.525257E-08  6.623762E-06  0.000000E+00  0.000000E+00
53   4.86584635E-06 -2.211147E+00 -6.379700E-05  4.225987E-08  7.252629E-06  0.000000E+00  0.000000E+00
54   5.32761291E-06 -2.420388E+00 -6.984918E-05  5.065416E-08  7.940828E-06  0.000000E+00  0.000000E+00
55   5.83291892E-06 -2.649173E+00 -7.647151E-05  6.070827E-08  8.693891E-06  0.000000E+00  0.000000E+00
56   6.38582884E-06 -2.899267E+00 -8.371709E-05  7.274817E-08  9.517865E-06  0.000000E+00  0.000000E+00
57   6.99078137E-06 -3.172581E+00 -9.164386E-05  8.716316E-08  1.041937E-05  0.000000E+00  0.000000E+00
58   7.65261988E-06 -3.471178E+00 -1.003151E-04  1.044179E-07  1.140558E-05  0.000000E+00  0.000000E+00
59   8.37663680E-06 -3.797280E+00 -1.097996E-04  1.250668E-07  1.248437E-05  0.000000E+00  0.000000E+00
60   9.16859999E-06 -4.153267E+00 -1.201728E-04  1.497706E-07  1.366433E-05  0.000000E+00  0.000000E+00
61   1.00348109E-05 -4.541686E+00 -1.315164E-04  1.793167E-07  1.495478E-05  0.000000E+00  0.000000E+00
62   1.09821364E-05 -4.965250E+00 -1.439199E-04  2.146422E-07  1.636594E-05  0.000000E+00  0.000000E+00
63   1.20180723E-05 -5.426821E+00 -1.574804E-04  2.568612E-07  1.790888E-05  0.000000E+00  0.000000E+00
64   1.31507888E-05 -5.929405E+00 -1.723039E-04  3.072969E-07  1.959572E-05  0.000000E+00  0.000000E+00
65   1.43891927E-05 -6.476129E+00 -1.885055E-04  3.675188E-07  2.143960E-05  0.000000E+00  0.000000E+00
66   1.57429953E-05 -7.070194E+00 -2.062104E-04  4.393848E-07  2.345487E-05  0.000000E+00  0.000000E+00
67   1.72227718E-05 -7.714830E+00 -2.255549E-04  5.250907E-07  2.565711E-05  0.000000E+00  0.000000E+00
68   1.88400485E-05 -8.413214E+00 -2.466866E-04  6.272256E-07  2.806323E-05  0.000000E+00  0.000000E+00
69   2.06073761E-05 -9.168361E+00 -2.697660E-04  7.488333E-07  3.069164E-05  0.000000E+00  0.000000E+00
70   2.25384178E-05 -9.982974E+00 -2.949670E-04  8.934808E-07  3.356229E-05  0.000000E+00  0.000000E+00
71   2.46480501E-05 -1.085925E+01 -3.224778E-04  1.065331E-06  3.669683E-05  0.000000E+00  0.000000E+00
72   2.69524530E-05 -1.179859E+01 -3.525022E-04  1.269220E-06  4.011874E-05  0.000000E+00  0.000000E+00
73   2.94692314E-05 -1.280126E+01 -3.852602E-04  1.510729E-06  4.385337E-05  0.000000E+00  0.000000E+00
74   3.22175273E-05 -1.386594E+01 -4.209892E-04  1.796252E-06  4.792821E-05  0.000000E+00  0.000000E+00
75   3.52181498E-05 -1.498904E+01 -4.599450E-04  2.133046E-06  5.237292E-05  0.000000E+00  0.000000E+00
76   3.84937068E-05 -1.616401E+01 -5.024030E-04  2.529241E-06  5.721950E-05  0.000000E+00  0.000000E+00
77   4.20687612E-05 -1.738030E+01 -5.486586E-04  2.993808E-06  6.250251E-05  0.000000E+00  0.000000E+00
78   4.59699805E-05 -1.862224E+01 -5.990292E-04  3.536429E-06  6.825919E-05  0.000000E+00  0.000000E+00
79   5.02263063E-05 -1.986765E+01 -6.538547E-04  4.167253E-06  7.452972E-05  0.000000E+00  0.000000E+00
80   5.48691434E-05 -2.108670E+01 -7.134999E-04  4.896479E-06  8.135744E-05  0.000000E+00  0.000000E+00
81   5.99325424E-05 -2.224126E+01 -7.783556E-04  5.733741E-06  8.878892E-05  0.000000E+00  0.000000E+00
82   6.54534179E-05 -2.328621E+01 -8.488393E-04  6.687293E-06  9.687336E-05  0.000000E+00  0.000000E+00
83   7.14717630E-05 -2.417491E+01 -9.253912E-04  7.763130E-06  1.056623E-04  0.000000E+00  0.000000E+00
84   7.80308833E-05 -2.487063E+01 -1.008470E-03  8.964467E-06  1.152139E-04  0.000000E+00  0.000000E+00
85   8.51776583E-05 -2.536191E+01 -1.098572E-03  1.029232E-05  1.255998E-04  0.000000E+00  0.000000E+00
86   9.29627989E-05 -2.567093E+01 -1.196269E-03  1.174751E-05  1.368983E-04  0.000000E+00  0.000000E+00
87   1.01441135E-04 -2.584398E+01 -1.302193E-03  1.333315E-05  1.491812E-04  0.000000E+00  0.000000E+00
88   1.10671920E-04 -2.593091E+01 -1.416998E-03  1.505625E-05  1.625193E-04  0.000000E+00  0.000000E+00
89   1.20719144E-04 -2.597032E+01 -1.541361E-03  1.692837E-05  1.769977E-04  0.000000E+00  0.000000E+00
90   1.31651877E-04 -2.598642E+01 -1.676006E-03  1.896538E-05  1.927149E-04  0.000000E+00  0.000000E+00
91   1.43544627E-04 -2.599222E+01 -1.821719E-03  2.118699E-05  2.097760E-04  0.000000E+00  0.000000E+00
92   1.56477704E-04 -2.599389E+01 -1.979341E-03  2.361631E-05  2.282913E-04  0.000000E+00  0.000000E+00
93   1.70537634E-04 -2.599407E+01 -2.149768E-03  2.627974E-05  2.483778E-04  0.000000E+00  0.000000E+00
94   1.85817564E-04 -2.599373E+01 -2.333948E-03  2.920710E-05  2.701606E-04  0.000000E+00  0.000000E+00
95   2.02417697E-04 -2.599322E+01 -2.532886E-03  3.243201E-05  2.937740E-04  0.000000E+00  0.000000E+00
96   2.20445759E-04 -2.599263E+01 -2.747640E-03  3.599233E-05  3.193614E-04  0.000000E+00  0.000000E+00
97   2.40017466E-04 -2.599198E+01 -2.979326E-03  3.993080E-05  3.470767E-04  0.000000E+00  0.000000E+00
98   2.61257026E-04 -2.599127E+01 -3.229112E-03  4.429571E-05  3.770843E-04  0.000000E+00  0.000000E+00
99   2.84297659E-04 -2.599050E+01 -3.498225E-03  4.914173E-05  4.095593E-04  0.000000E+00  0.000000E+00
100  3.09282127E-04 -2.598967E+01 -3.787943E-03  5.453077E-05  4.446889E-04  0.000000E+00  0.000000E+00
101  3.36363297E-04 -2.598877E+01 -4.099598E-03  6.053307E-05  4.826719E-04  0.000000E+00  0.000000E+00
102  3.65704711E-04 -2.598780E+01 -4.434569E-03  6.722834E-05  5.237201E-04  0.000000E+00  0.000000E+00
103  3.97481179E-04 -2.598675E+01 -4.794278E-03  7.470714E-05  5.680580E-04  0.000000E+00  0.000000E+00
104  4.31879384E-04 -2.598561E+01 -5.180187E-03  8.307236E-05  6.159241E-04  0.000000E+00  0.000000E+00
105  4.69098504E-04 -2.598438E+01 -5.593790E-03  9.244098E-05  6.675706E-04  0.000000E+00  0.000000E+00
106  5.09350851E-04 -2.598305E+01 -6.036599E-03  1.029460E-04  7.232644E-04  0.000000E+00  0.000000E+00
107  5.52862505E-04 -2.598162E+01 -6.510143E-03  1.147387E-04  7.832871E-04  0.000000E+00  0.000000E+00
108  5.99873979E-04 -2.598007E+01 -7.015947E-03  1.279910E-04  8.479357E-04  0.000000E+00  0.000000E+00
109  6.50640878E-04 -2.597840E+01 -7.555519E-03  1.428983E-04  9.175225E-04  0.000000E+00  0.000000E+00
110  7.05434554E-04 -2.597660E+01 -8.130335E-03  1.596830E-04  9.923756E-04  0.000000E+00  0.000000E+00
111  7.64542785E-04 -2.597467E+01 -8.741815E-03  1.785972E-04  1.072839E-03  0.000000E+00  0.000000E+00
112  8.28270429E-04 -2.597258E+01 -9.391301E-03  1.999275E-04  1.159272E-03  0.000000E+00  0.000000E+00
113  8.96940089E-04 -2.597034E+01 -1.008003E-02  2.239989E-04  1.252051E-03  0.000000E+00  0.000000E+00
114  9.70892759E-04 -2.596794E+01 -1.080911E-02  2.511799E-04  1.351566E-03  0.000000E+00  0.000000E+00
115  1.05048847E-03 -2.596536E+01 -1.157947E-02  2.818878E-04  1.458225E-03  0.000000E+00  0.000000E+00
116  1.13610690E-03 -2.596259E+01 -1.239183E-02  3.165950E-04  1.572447E-03  0.000000E+00  0.000000E+00
117  1.22814799E-03 -2.595962E+01 -1.324667E-02  3.558353E-04  1.694668E-03  0.000000E+00  0.000000E+00
118  1.32703254E-03 -2.595644E+01 -1.414417E-02  4.002114E-04  1.825337E-03  0.000000E+00  0.000000E+00
119  1.43320270E-03 -2.595304E+01 -1.508416E-02  4.504028E-04  1.964914E-03  0.000000E+00  0.000000E+00
120  1.54712258E-03 -2.594940E+01 -1.606608E-02  5.071749E-04  2.113870E-03  0.000000E+00  0.000000E+00
121  1.66927867E-03 -2.594551E+01 -1.708889E-02  5.713881E-04  2.272687E-03  0.000000E+00  0.000000E+00
122  1.80018033E-03 -2.594137E+01 -1.815104E-02  6.440087E-04  2.441853E-03  0.000000E+00  0.000000E+00
123  1.94036015E-03 -2.593695E+01 -1.925040E-02  7.261194E-04  2.621862E-03  0.000000E+00  0.000000E+00
124  2.09037436E-03 -2.593224E+01 -2.038415E-02  8.189322E-04  2.813212E-03  0.000000E+00  0.000000E+00
125  2.25080312E-03 -2.592724E+01 -2.154877E-02  9.238006E-04  3.016400E-03  0.000000E+00  0.000000E+00
126  2.42225077E-03 -2.592192E+01 -2.273991E-02  1.042234E-03  3.231922E-03  0.000000E+00  0.000000E+00
127  2.60534602E-03 -2.591627E+01 -2.395236E-02  1.175911E-03  3.460268E-03  0.000000E+00  0.000000E+00
128  2.80074214E-03 -2.591028E+01 -2.517994E-02  1.326697E-03  3.701918E-03  0.000000E+00  0.000000E+00
129  3.00911699E-03 -2.590394E+01 -2.641544E-02  1.496659E-03  3.957341E-03  0.000000E+00  0.000000E+00
130  3.23117308E-03 -2.589722E+01 -2.765056E-02  1.688082E-03  4.226985E-03  0.000000E+00  0.000000E+00
131  3.46763749E-03 -2.589013E+01 -2.887581E-02  1.903487E-03  4.511279E-03  0.000000E+00  0.000000E+00
132  3.71926180E-03 -2.588265E+01 -3.008050E-02  2.145649E-03  4.810622E-03  0.000000E+00  0.000000E+00
133  3.98682188E-03 -2.587475E+01 -3.125266E-02  2.417616E-03  5.125381E-03  0.000000E+00  0.000000E+00
134  4.27111767E-03 -2.586645E+01 -3.237900E-02  2.722724E-03  5.455884E-03  0.000000E+00  0.000000E+00
135  4.57297288E-03 -2.585771E+01 -3.344487E-02  3.064618E-03  5.802415E-03  0.000000E+00  0.000000E+00
136  4.89323459E-03 -2.584854E+01 -3.443429E-02  3.447271E-03  6.165205E-03  0.000000E+00  0.000000E+00
137  5.23277284E-03 -2.583893E+01 -3.532992E-02  3.874996E-03  6.544427E-03  0.000000E+00  0.000000E+00
138  5.59248014E-03 -2.582886E+01 -3.611310E-02  4.352466E-03  6.940192E-03  0.000000E+00  0.000000E+00
139  5.97327087E-03 -2.581833E+01 -3.676390E-02  4.884727E-03  7.352533E-03  0.000000E+00  0.000000E+00
140  6.37608073E-03 -2.580734E+01 -3.726117E-02  5.477214E-03  7.781407E-03  0.000000E+00  0.000000E+00
141  6.80186603E-03 -2.579589E+01 -3.758270E-02  6.135756E-03  8.226681E-03  0.000000E+00  0.000000E+00
142  7.25160295E-03 -2.578397E+01 -3.770529E-02  6.866587E-03  8.688127E-03  0.000000E+00  0.000000E+00
143  7.72628684E-03 -2.577157E+01 -3.760491E-02  7.676349E-03  9.165414E-03  0.000000E+00  0.000000E+00
144  8.22693133E-03 -2.575872E+01 -3.725694E-02  8.572096E-03  9.658097E-03  0.000000E+00  0.000000E+00
145  8.75456754E-03 -2.574540E+01 -3.663633E-02  9.561283E-03  1.016562E-02  0.000000E+00  0.000000E+00
146  9.31024314E-03 -2.573163E+01 -3.571787E-02  1.065176E-02  1.068728E-02  0.000000E+00  0.000000E+00
147  9.89502148E-03 -2.571741E+01 -3.447646E-02  1.185177E-02  1.122226E-02  0.000000E+00  0.000000E+00
148  1.05099806E-02 -2.570275E+01 -3.288739E-02  1.316990E-02  1.176960E-02  0.000000E+00  0.000000E+00
149  1.11562122E-02 -2.568767E+01 -3.092667E-02  1.461506E-02  1.232818E-02  0.000000E+00  0.000000E+00
150  1.18348208E-02 -2.567219E+01 -2.857137E-02  1.619648E-02  1.289673E-02  0.000000E+00  0.000000E+00
151  1.25469227E-02 -2.565631E+01 -2.579991E-02  1.792361E-02  1.347383E-02  0.000000E+00  0.000000E+00
152  1.32936448E-02 -2.564007E+01 -2.259248E-02  1.980611E-02  1.405789E-02  0.000000E+00  0.000000E+00
153  1.40761238E-02 -2.562348E+01 -1.893129E-02  2.185375E-02  1.464713E-02  0.000000E+00  0.000000E+00
154  1.48955048E-02 -2.560656E+01 -1.480098E-02  2.407635E-02  1.523963E-02  0.000000E+00  0.000000E+00
155  1.57529410E-02 -2.558936E+01 -1.018886E-02  2.648372E-02  1.583329E-02  0.000000E+00  0.000000E+00
156  1.66495919E-02 -2.557188E+01 -5.085256E-03  2.908551E-02  1.642581E-02  0.000000E+00  0.000000E+00
157  1.75866226E-02 -2.555418E+01  5.163179E-04  3.189113E-02  1.701474E-02  0.000000E+00  0.000000E+00
158  1.85652031E-02 -2.553627E+01  6.247095E-03  3.490962E-02  1.759746E-02  0.000000E+00  0.000000E+00
159  1.95865069E-02 -2.551820E+01  1.178096E-02  3.814953E-02  1.817115E-02  0.000000E+00  0.000000E+00
160  2.06517101E-02 -2.550000E+01  1.708186E-02  4.161874E-02  1.873283E-02  0.000000E+00  0.000000E+00
161  2.17619907E-02 -2.548171E+01  2.212710E-02  4.532432E-02  1.927938E-02  0.000000E+00  0.000000E+00
162  2.29185275E-02 -2.546337E+01  2.689540E-02  4.927236E-02  1.980751E-02  0.000000E+00  0.000000E+00
163  2.41224993E-02 -2.544502E+01  3.136715E-02  5.346776E-02  2.031376E-02  0.000000E+00  0.000000E+00
164  2.53750840E-02 -2.542670E+01  3.552468E-02  5.791405E-02  2.079459E-02  0.000000E+00  0.000000E+00
165  2.66774576E-02 -2.540845E+01  3.935247E-02  6.261319E-02  2.124631E-02  0.000000E+00  0.000000E+00
166  2.80307940E-02 -2.539031E+01  4.283737E-02  6.756536E-02  2.166514E-02  0.000000E+00  0.000000E+00
167  2.94362633E-02 -2.537232E+01  4.596876E-02  7.276869E-02  2.204721E-02  0.000000E+00  0.000000E+00
168  3.08950319E-02 -2.535453E+01  4.873873E-02  7.821911E-02  2.238859E-02  0.000000E+00  0.000000E+00
169  3.24082615E-02 -2.533698E+01  5.114217E-02  8.391005E-02  2.268532E-02  0.000000E+00  0.000000E+00
170  3.39771082E-02 -2.531969E+01  5.317687E-02  8.983225E-02  2.293344E-02  0.000000E+00  0.000000E+00
171  3.56027222E-02 -2.530272E+01  5.484352E-02  9.597352E-02  2.312897E-02  0.000000E+00  0.000000E+00
172  3.72862471E-02 -2.528609E+01  5.614574E-02  1.023185E-01  2.326800E-02  0.000000E+00  0.000000E+00
173  3.90288194E-02 -2.526983E+01  5.709002E-02  1.088486E-01  2.334672E-02  0.000000E+00  0.000000E+00
174  4.08315678E-02 -2.525399E+01  5.768563E-02  1.155414E-01  2.336139E-02  0.000000E+00  0.000000E+00
175  4.26956127E-02 -2.523859E+01  5.794450E-02  1.223710E-01  2.330846E-02  0.000000E+00  0.000000E+00
176  4.46220661E-02 -2.522365E+01  5.788105E-02  1.293075E-01  2.318456E-02  0.000000E+00  0.000000E+00
177  4.66120306E-02 -2.520920E+01  5.751197E-02  1.363168E-01  2.298655E-02  0.000000E+00  0.000000E+00
178  4.86665997E-02 -2.519526E+01  5.685602E-02  1.433610E-01  2.271158E-02  0.000000E+00  0.000000E+00
179  5.07868568E-02 -2.518185E+01  5.593373E-02  1.503976E-01  2.235710E-02  0.000000E+00  0.000000E+00
180  5.29738751E-02 -2.516898E+01  5.476715E-02  1.573802E-01  2.192094E-02  0.000000E+00  0.000000E+00
181  5.52287174E-02 -2.515666E+01  5.337952E-02  1.642580E-01  2.140134E-02  0.000000E+00  0.000000E+00
182  5.75524357E-02 -2.514491E+01  5.179497E-02  1.709761E-01  2.079700E-02  0.000000E+00  0.000000E+00
183  5.99460711E-02 -2.513372E+01  5.003822E-02  1.774756E-01  2.010712E-02  0.000000E+00  0.000000E+00
184  6.24106534E-02 -2.512310E+01  4.813421E-02  1.836938E-01  1.933145E-02  0.000000E+00  0.000000E+00
185  6.49472008E-02 -2.511306E+01  4.610786E-02  1.895646E-01  1.847034E-02  0.000000E+00  0.000000E+00
