#      n =  0
#  kappa = -1
# energy =  2.00000000E+03
#     dn =  0.00000000E+00
#SelfEne =  2.72113860E+32
#     vc = -2.06297043E+02
#  ilast =  245
#    ifm =    0
#    cfm =  0.00000000E+00
#    xfm =  0.00000000E+00
#    rfn =  0.00000000E+00
#    pdx =  9.99832203E-01
#   bqp0 = -4.25764033E-05
#   bqp1 =  0.00000000E+00
#    idx = 3
# LEPTON = 0
#   MASS =  1.00000000E+00
# CHARGE =  1.00000000E+00
#  EUNIT =  2.72113860E+01
#  RUNIT =  4.13413733E+16
#  LUNIT =  5.29177211E-01
#    AMU =  1.82288849E+03
#    FSC =  7.29735257E-03
#  phase =  6.18464390E+00


0    3.84615385E-08 -1.749939E-02 -5.045507E-07  5.606587E-07 -2.387918E-11  0.000000E+00  0.000000E+00
1    4.21520013E-08 -1.917849E-02 -5.529495E-07  6.144456E-07 -2.868118E-11  0.000000E+00  0.000000E+00
2    4.61964108E-08 -2.101863E-02 -6.059897E-07  6.733908E-07 -3.444858E-11  0.000000E+00  0.000000E+00
3    5.06286098E-08 -2.303521E-02 -6.641158E-07  7.379880E-07 -4.137529E-11  0.000000E+00  0.000000E+00
4    5.54857553E-08 -2.524514E-02 -7.278151E-07  8.087787E-07 -4.969428E-11  0.000000E+00  0.000000E+00
5    6.08085623E-08 -2.766693E-02 -7.976213E-07  8.863563E-07 -5.968530E-11  0.000000E+00  0.000000E+00
6    6.66416438E-08 -3.032088E-02 -8.741194E-07  9.713709E-07 -7.168430E-11  0.000000E+00  0.000000E+00
7    7.30338842E-08 -3.322925E-02 -9.579504E-07  1.064535E-06 -8.609472E-11  0.000000E+00  0.000000E+00
8    8.00387086E-08 -3.641633E-02 -1.049816E-06  1.166627E-06 -1.034006E-10  0.000000E+00  0.000000E+00
9    8.77149216E-08 -3.990887E-02 -1.150486E-06  1.278505E-06 -1.241840E-10  0.000000E+00  0.000000E+00
10   9.61268296E-08 -4.373615E-02 -1.260802E-06  1.401104E-06 -1.491433E-10  0.000000E+00  0.000000E+00
11   1.05344527E-07 -4.793006E-02 -1.381689E-06  1.535448E-06 -1.791162E-10  0.000000E+00  0.000000E+00
12   1.15445516E-07 -5.252584E-02 -1.514157E-06  1.682665E-06 -2.151105E-10  0.000000E+00  0.000000E+00
13   1.26513941E-07 -5.756179E-02 -1.659314E-06  1.843983E-06 -2.583336E-10  0.000000E+00  0.000000E+00
14   1.38642593E-07 -6.308011E-02 -1.818374E-06  2.020752E-06 -3.102377E-10  0.000000E+00  0.000000E+00
15   1.51932674E-07 -6.912687E-02 -1.992666E-06  2.214449E-06 -3.725639E-10  0.000000E+00  0.000000E+00
16   1.66495275E-07 -7.575258E-02 -2.183647E-06  2.426693E-06 -4.474038E-10  0.000000E+00  0.000000E+00
17   1.82452417E-07 -8.301280E-02 -2.392913E-06  2.659260E-06 -5.372702E-10  0.000000E+00  0.000000E+00
18   1.99936825E-07 -9.096789E-02 -2.622210E-06  2.914087E-06 -6.451741E-10  0.000000E+00  0.000000E+00
19   2.19094476E-07 -9.968425E-02 -2.873452E-06  3.193302E-06 -7.747332E-10  0.000000E+00  0.000000E+00
20   2.40085694E-07 -1.092348E-01 -3.148736E-06  3.499239E-06 -9.302935E-10  0.000000E+00  0.000000E+00
21   2.63085313E-07 -1.196992E-01 -3.450359E-06  3.834447E-06 -1.117066E-09  0.000000E+00  0.000000E+00
22   2.88284726E-07 -1.311644E-01 -3.780832E-06  4.201718E-06 -1.341304E-09  0.000000E+00  0.000000E+00
23   3.15894545E-07 -1.437262E-01 -4.142911E-06  4.604116E-06 -1.610522E-09  0.000000E+00  0.000000E+00
24   3.46143812E-07 -1.574890E-01 -4.539611E-06  5.044988E-06 -1.933722E-09  0.000000E+00  0.000000E+00
25   3.79285711E-07 -1.725677E-01 -4.974235E-06  5.528013E-06 -2.321734E-09  0.000000E+00  0.000000E+00
26   4.15595029E-07 -1.890874E-01 -5.450399E-06  6.057204E-06 -2.787524E-09  0.000000E+00  0.000000E+00
27   4.55373132E-07 -2.071853E-01 -5.972059E-06  6.636955E-06 -3.346658E-09  0.000000E+00  0.000000E+00
28   4.98952461E-07 -2.270125E-01 -6.543556E-06  7.272101E-06 -4.017848E-09  0.000000E+00  0.000000E+00
29   5.46693778E-07 -2.487331E-01 -7.169631E-06  7.967906E-06 -4.823496E-09  0.000000E+00  0.000000E+00
30   5.98992705E-07 -2.725270E-01 -7.855482E-06  8.730142E-06 -5.790488E-09  0.000000E+00  0.000000E+00
31   6.56285618E-07 -2.985928E-01 -8.606803E-06  9.565152E-06 -6.951143E-09  0.000000E+00  0.000000E+00
32   7.19044757E-07 -3.271451E-01 -9.429814E-06  1.047984E-05 -8.344119E-09  0.000000E+00  0.000000E+00
33   7.87790328E-07 -3.584205E-01 -1.033133E-05  1.148178E-05 -1.001585E-08  0.000000E+00  0.000000E+00
34   8.63093418E-07 -3.926785E-01 -1.131882E-05  1.257928E-05 -1.202209E-08  0.000000E+00  0.000000E+00
35   9.45576450E-07 -4.302022E-01 -1.240045E-05  1.378142E-05 -1.442963E-08  0.000000E+00  0.000000E+00
36   1.03591867E-06 -4.713001E-01 -1.358515E-05  1.509811E-05 -1.731850E-08  0.000000E+00  0.000000E+00
37   1.13486866E-06 -5.163124E-01 -1.488271E-05  1.654025E-05 -2.078484E-08  0.000000E+00  0.000000E+00
38   1.24324265E-06 -5.656100E-01 -1.630382E-05  1.811973E-05 -2.494384E-08  0.000000E+00  0.000000E+00
39   1.36193260E-06 -6.195976E-01 -1.786020E-05  1.984957E-05 -2.993354E-08  0.000000E+00  0.000000E+00
40   1.49191597E-06 -6.787191E-01 -1.956465E-05  2.174399E-05 -3.591947E-08  0.000000E+00  0.000000E+00
41   1.63426233E-06 -7.434597E-01 -2.143119E-05  2.381860E-05 -4.310010E-08  0.000000E+00  0.000000E+00
42   1.79014344E-06 -8.143505E-01 -2.347515E-05  2.609045E-05 -5.171334E-08  0.000000E+00  0.000000E+00
43   1.96083495E-06 -8.919696E-01 -2.571329E-05  2.857815E-05 -6.204399E-08  0.000000E+00  0.000000E+00
44   2.14774031E-06 -9.769524E-01 -2.816396E-05  3.130213E-05 -7.443378E-08  0.000000E+00  0.000000E+00
45   2.35238607E-06 -1.069989E+00 -3.084720E-05  3.428467E-05 -8.929159E-08  0.000000E+00  0.000000E+00
46   2.57644835E-06 -1.171837E+00 -3.378494E-05  3.755015E-05 -1.071076E-07  0.000000E+00  0.000000E+00
47   2.82175649E-06 -1.283321E+00 -3.700115E-05  4.112525E-05 -1.284688E-07  0.000000E+00  0.000000E+00
48   3.09031051E-06 -1.405341E+00 -4.052203E-05  4.503910E-05 -1.540779E-07  0.000000E+00  0.000000E+00
49   3.38429828E-06 -1.538881E+00 -4.437622E-05  4.932357E-05 -1.847763E-07  0.000000E+00  0.000000E+00
50   3.70611010E-06 -1.685012E+00 -4.859500E-05  5.401348E-05 -2.215712E-07  0.000000E+00  0.000000E+00
51   4.05835855E-06 -1.844901E+00 -5.321259E-05  5.914687E-05 -2.656677E-07  0.000000E+00  0.000000E+00
52   4.44389693E-06 -2.019818E+00 -5.826632E-05  6.476532E-05 -3.185074E-07  0.000000E+00  0.000000E+00
53   4.86584635E-06 -2.211147E+00 -6.379700E-05  7.091424E-05 -3.818147E-07  0.000000E+00  0.000000E+00
54   5.32761291E-06 -2.420388E+00 -6.984918E-05  7.764324E-05 -4.576512E-07  0.000000E+00  0.000000E+00
55   5.83291892E-06 -2.649173E+00 -7.647151E-05  8.500648E-05 -5.484807E-07  0.000000E+00  0.000000E+00
56   6.38582884E-06 -2.899267E+00 -8.371709E-05  9.306309E-05 -6.572466E-07  0.000000E+00  0.000000E+00
57   6.99078137E-06 -3.172581E+00 -9.164386E-05  1.018776E-04 -7.874640E-07  0.000000E+00  0.000000E+00
58   7.65261988E-06 -3.471178E+00 -1.003151E-04  1.115206E-04 -9.433272E-07  0.000000E+00  0.000000E+00
59   8.37663680E-06 -3.797280E+00 -1.097996E-04  1.220687E-04 -1.129840E-06  0.000000E+00  0.000000E+00
60   9.16859999E-06 -4.153267E+00 -1.201728E-04  1.336060E-04 -1.352966E-06  0.000000E+00  0.000000E+00
61   1.00348109E-05 -4.541686E+00 -1.315164E-04  1.462237E-04 -1.619808E-06  0.000000E+00  0.000000E+00
62   1.09821364E-05 -4.965250E+00 -1.439199E-04  1.600214E-04 -1.938817E-06  0.000000E+00  0.000000E+00
63   1.20180723E-05 -5.426821E+00 -1.574804E-04  1.751079E-04 -2.320036E-06  0.000000E+00  0.000000E+00
64   1.31507888E-05 -5.929405E+00 -1.723039E-04  1.916012E-04 -2.775391E-06  0.000000E+00  0.000000E+00
65   1.43891927E-05 -6.476129E+00 -1.885055E-04  2.096302E-04 -3.319014E-06  0.000000E+00  0.000000E+00
66   1.57429953E-05 -7.070194E+00 -2.062104E-04  2.293348E-04 -3.967630E-06  0.000000E+00  0.000000E+00
67   1.72227718E-05 -7.714830E+00 -2.255549E-04  2.508675E-04 -4.740982E-06  0.000000E+00  0.000000E+00
68   1.88400485E-05 -8.413214E+00 -2.466866E-04  2.743937E-04 -5.662329E-06  0.000000E+00  0.000000E+00
69   2.06073761E-05 -9.168361E+00 -2.697660E-04  3.000932E-04 -6.758982E-06  0.000000E+00  0.000000E+00
70   2.25384178E-05 -9.982974E+00 -2.949670E-04  3.281613E-04 -8.062899E-06  0.000000E+00  0.000000E+00
71   2.46480501E-05 -1.085925E+01 -3.224778E-04  3.588096E-04 -9.611308E-06  0.000000E+00  0.000000E+00
72   2.69524530E-05 -1.179859E+01 -3.525022E-04  3.922673E-04 -1.144734E-05  0.000000E+00  0.000000E+00
73   2.94692314E-05 -1.280126E+01 -3.852602E-04  4.287827E-04 -1.362064E-05  0.000000E+00  0.000000E+00
74   3.22175273E-05 -1.386594E+01 -4.209892E-04  4.686241E-04 -1.618787E-05  0.000000E+00  0.000000E+00
75   3.52181498E-05 -1.498904E+01 -4.599450E-04  5.120816E-04 -1.921299E-05  0.000000E+00  0.000000E+00
76   3.84937068E-05 -1.616401E+01 -5.024030E-04  5.594678E-04 -2.276723E-05  0.000000E+00  0.000000E+00
77   4.20687612E-05 -1.738030E+01 -5.486586E-04  6.111204E-04 -2.692843E-05  0.000000E+00  0.000000E+00
78   4.59699805E-05 -1.862224E+01 -5.990292E-04  6.674029E-04 -3.177958E-05  0.000000E+00  0.000000E+00
79   5.02263063E-05 -1.986765E+01 -6.538547E-04  7.287071E-04 -3.740604E-05  0.000000E+00  0.000000E+00
80   5.48691434E-05 -2.108670E+01 -7.134999E-04  7.954560E-04 -4.389111E-05  0.000000E+00  0.000000E+00
81   5.99325424E-05 -2.224126E+01 -7.783556E-04  8.681061E-04 -5.130958E-05  0.000000E+00  0.000000E+00
82   6.54534179E-05 -2.328621E+01 -8.488393E-04  9.471499E-04 -5.971942E-05  0.000000E+00  0.000000E+00
83   7.14717630E-05 -2.417491E+01 -9.253912E-04  1.033116E-03 -6.915300E-05  0.000000E+00  0.000000E+00
84   7.80308833E-05 -2.487063E+01 -1.008470E-03  1.126569E-03 -7.961163E-05  0.000000E+00  0.000000E+00
85   8.51776583E-05 -2.536191E+01 -1.098572E-03  1.228123E-03 -9.106929E-05  0.000000E+00  0.000000E+00
86   9.29627989E-05 -2.567093E+01 -1.196269E-03  1.338471E-03 -1.034888E-04  0.000000E+00  0.000000E+00
87   1.01441135E-04 -2.584398E+01 -1.302193E-03  1.458374E-03 -1.168450E-04  0.000000E+00  0.000000E+00
88   1.10671920E-04 -2.593091E+01 -1.416998E-03  1.588632E-03 -1.311421E-04  0.000000E+00  0.000000E+00
89   1.20719144E-04 -2.597032E+01 -1.541361E-03  1.730089E-03 -1.464188E-04  0.000000E+00  0.000000E+00
90   1.31651877E-04 -2.598642E+01 -1.676006E-03  1.883653E-03 -1.627432E-04  0.000000E+00  0.000000E+00
91   1.43544627E-04 -2.599222E+01 -1.821719E-03  2.050306E-03 -1.802053E-04  0.000000E+00  0.000000E+00
92   1.56477704E-04 -2.599389E+01 -1.979341E-03  2.231103E-03 -1.989109E-04  0.000000E+00  0.000000E+00
93   1.70537634E-04 -2.599407E+01 -2.149768E-03  2.427179E-03 -2.189770E-04  0.000000E+00  0.000000E+00
94   1.85817564E-04 -2.599373E+01 -2.333948E-03  2.639748E-03 -2.405298E-04  0.000000E+00  0.000000E+00
95   2.02417697E-04 -2.599322E+01 -2.532886E-03  2.870108E-03 -2.637043E-04  0.000000E+00  0.000000E+00
96   2.20445759E-04 -2.599263E+01 -2.747640E-03  3.119646E-03 -2.886436E-04  0.000000E+00  0.000000E+00
97   2.40017466E-04 -2.599198E+01 -2.979326E-03  3.389844E-03 -3.154999E-04  0.000000E+00  0.000000E+00
98   2.61257026E-04 -2.599127E+01 -3.229112E-03  3.682281E-03 -3.444345E-04  0.000000E+00  0.000000E+00
99   2.84297659E-04 -2.599050E+01 -3.498225E-03  3.998639E-03 -3.756185E-04  0.000000E+00  0.000000E+00
100  3.09282127E-04 -2.598967E+01 -3.787943E-03  4.340707E-03 -4.092335E-04  0.000000E+00  0.000000E+00
101  3.36363297E-04 -2.598877E+01 -4.099598E-03  4.710387E-03 -4.454718E-04  0.000000E+00  0.000000E+00
102  3.65704711E-04 -2.598780E+01 -4.434569E-03  5.109694E-03 -4.845374E-04  0.000000E+00  0.000000E+00
103  3.97481179E-04 -2.598675E+01 -4.794278E-03  5.540765E-03 -5.266462E-04  0.000000E+00  0.000000E+00
104  4.31879384E-04 -2.598561E+01 -5.180187E-03  6.005856E-03 -5.720266E-04  0.000000E+00  0.000000E+00
105  4.69098504E-04 -2.598438E+01 -5.593790E-03  6.507354E-03 -6.209200E-04  0.000000E+00  0.000000E+00
106  5.09350851E-04 -2.598305E+01 -6.036599E-03  7.047768E-03 -6.735811E-04  0.000000E+00  0.000000E+00
107  5.52862505E-04 -2.598162E+01 -6.510143E-03  7.629740E-03 -7.302788E-04  0.000000E+00  0.000000E+00
108  5.99873979E-04 -2.598007E+01 -7.015947E-03  8.256044E-03 -7.912960E-04  0.000000E+00  0.000000E+00
109  6.50640878E-04 -2.597840E+01 -7.555519E-03  8.929583E-03 -8.569302E-04  0.000000E+00  0.000000E+00
110  7.05434554E-04 -2.597660E+01 -8.130335E-03  9.653389E-03 -9.274937E-04  0.000000E+00  0.000000E+00
111  7.64542785E-04 -2.597467E+01 -8.741815E-03  1.043062E-02 -1.003314E-03  0.000000E+00  0.000000E+00
112  8.28270429E-04 -2.597258E+01 -9.391301E-03  1.126458E-02 -1.084734E-03  0.000000E+00  0.000000E+00
113  8.96940089E-04 -2.597034E+01 -1.008003E-02  1.215865E-02 -1.172110E-03  0.000000E+00  0.000000E+00
114  9.70892759E-04 -2.596794E+01 -1.080911E-02  1.311636E-02 -1.265816E-03  0.000000E+00  0.000000E+00
115  1.05048847E-03 -2.596536E+01 -1.157947E-02  1.414134E-02 -1.366238E-03  0.000000E+00  0.000000E+00
116  1.13610690E-03 -2.596259E+01 -1.239183E-02  1.523729E-02 -1.473779E-03  0.000000E+00  0.000000E+00
117  1.22814799E-03 -2.595962E+01 -1.324667E-02  1.640803E-02 -1.588854E-03  0.000000E+00  0.000000E+00
118  1.32703254E-03 -2.595644E+01 -1.414417E-02  1.765742E-02 -1.711892E-03  0.000000E+00  0.000000E+00
119  1.43320270E-03 -2.595304E+01 -1.508416E-02  1.898937E-02 -1.843333E-03  0.000000E+00  0.000000E+00
120  1.54712258E-03 -2.594940E+01 -1.606608E-02  2.040782E-02 -1.983631E-03  0.000000E+00  0.000000E+00
121  1.66927867E-03 -2.594551E+01 -1.708889E-02  2.191672E-02 -2.133247E-03  0.000000E+00  0.000000E+00
122  1.80018033E-03 -2.594137E+01 -1.815104E-02  2.351999E-02 -2.292652E-03  0.000000E+00  0.000000E+00
123  1.94036015E-03 -2.593695E+01 -1.925040E-02  2.522150E-02 -2.462323E-03  0.000000E+00  0.000000E+00
124  2.09037436E-03 -2.593224E+01 -2.038415E-02  2.702503E-02 -2.642742E-03  0.000000E+00  0.000000E+00
125  2.25080312E-03 -2.592724E+01 -2.154877E-02  2.893423E-02 -2.834394E-03  0.000000E+00  0.000000E+00
126  2.42225077E-03 -2.592192E+01 -2.273991E-02  3.095258E-02 -3.037761E-03  0.000000E+00  0.000000E+00
127  2.60534602E-03 -2.591627E+01 -2.395236E-02  3.308335E-02 -3.253326E-03  0.000000E+00  0.000000E+00
128  2.80074214E-03 -2.591028E+01 -2.517994E-02  3.532955E-02 -3.481561E-03  0.000000E+00  0.000000E+00
129  3.00911699E-03 -2.590394E+01 -2.641544E-02  3.769386E-02 -3.722931E-03  0.000000E+00  0.000000E+00
130  3.23117308E-03 -2.589722E+01 -2.765056E-02  4.017858E-02 -3.977887E-03  0.000000E+00  0.000000E+00
131  3.46763749E-03 -2.589013E+01 -2.887581E-02  4.278557E-02 -4.246860E-03  0.000000E+00  0.000000E+00
132  3.71926180E-03 -2.588265E+01 -3.008050E-02  4.551619E-02 -4.530260E-03  0.000000E+00  0.000000E+00
133  3.98682188E-03 -2.587475E+01 -3.125266E-02  4.837121E-02 -4.828470E-03  0.000000E+00  0.000000E+00
134  4.27111767E-03 -2.586645E+01 -3.237900E-02  5.135075E-02 -5.141837E-03  0.000000E+00  0.000000E+00
135  4.57297288E-03 -2.585771E+01 -3.344487E-02  5.445419E-02 -5.470672E-03  0.000000E+00  0.000000E+00
136  4.89323459E-03 -2.584854E+01 -3.443429E-02  5.768010E-02 -5.815243E-03  0.000000E+00  0.000000E+00
137  5.23277284E-03 -2.583893E+01 -3.532992E-02  6.102616E-02 -6.175765E-03  0.000000E+00  0.000000E+00
138  5.59248014E-03 -2.582886E+01 -3.611310E-02  6.448906E-02 -6.552397E-03  0.000000E+00  0.000000E+00
139  5.97327087E-03 -2.581833E+01 -3.676390E-02  6.806444E-02 -6.945234E-03  0.000000E+00  0.000000E+00
140  6.37608073E-03 -2.580734E+01 -3.726117E-02  7.174676E-02 -7.354301E-03  0.000000E+00  0.000000E+00
141  6.80186603E-03 -2.579589E+01 -3.758270E-02  7.552925E-02 -7.779546E-03  0.000000E+00  0.000000E+00
142  7.25160295E-03 -2.578397E+01 -3.770529E-02  7.940382E-02 -8.220832E-03  0.000000E+00  0.000000E+00
143  7.72628684E-03 -2.577157E+01 -3.760491E-02  8.336097E-02 -8.677928E-03  0.000000E+00  0.000000E+00
144  8.22693133E-03 -2.575872E+01 -3.725694E-02  8.738972E-02 -9.150506E-03  0.000000E+00  0.000000E+00
145  8.75456754E-03 -2.574540E+01 -3.663633E-02  9.147753E-02 -9.638131E-03  0.000000E+00  0.000000E+00
146  9.31024314E-03 -2.573163E+01 -3.571787E-02  9.561022E-02 -1.014025E-02  0.000000E+00  0.000000E+00
147  9.89502148E-03 -2.571741E+01 -3.447646E-02  9.977195E-02 -1.065620E-02  0.000000E+00  0.000000E+00
148  1.05099806E-02 -2.570275E+01 -3.288739E-02  1.039451E-01 -1.118518E-02  0.000000E+00  0.000000E+00
149  1.11562122E-02 -2.568767E+01 -3.092667E-02  1.081104E-01 -1.172625E-02  0.000000E+00  0.000000E+00
150  1.18348208E-02 -2.567219E+01 -2.857137E-02  1.122466E-01 -1.227835E-02  0.000000E+00  0.000000E+00
151  1.25469227E-02 -2.565631E+01 -2.579991E-02  1.163308E-01 -1.284026E-02  0.000000E+00  0.000000E+00
152  1.32936448E-02 -2.564007E+01 -2.259248E-02  1.203382E-01 -1.341062E-02  0.000000E+00  0.000000E+00
153  1.40761238E-02 -2.562348E+01 -1.893129E-02  1.242423E-01 -1.398789E-02  0.000000E+00  0.000000E+00
154  1.48955048E-02 -2.560656E+01 -1.480098E-02  1.280147E-01 -1.457040E-02  0.000000E+00  0.000000E+00
155  1.57529410E-02 -2.558936E+01 -1.018886E-02  1.316255E-01 -1.515632E-02  0.000000E+00  0.000000E+00
156  1.66495919E-02 -2.557188E+01 -5.085256E-03  1.350432E-01 -1.574363E-02  0.000000E+00  0.000000E+00
157  1.75866226E-02 -2.555418E+01  5.163179E-04  1.382347E-01 -1.633018E-02  0.000000E+00  0.000000E+00
158  1.85652031E-02 -2.553627E+01  6.247095E-03  1.411656E-01 -1.691365E-02  0.000000E+00  0.000000E+00
159  1.95865069E-02 -2.551820E+01  1.178096E-02  1.438003E-01 -1.749158E-02  0.000000E+00  0.000000E+00
160  2.06517101E-02 -2.550000E+01  1.708186E-02  1.461022E-01 -1.806138E-02  0.000000E+00  0.000000E+00
161  2.17619907E-02 -2.548171E+01  2.212710E-02  1.480340E-01 -1.862027E-02  0.000000E+00  0.000000E+00
162  2.29185275E-02 -2.546337E+01  2.689540E-02  1.495577E-01 -1.916536E-02  0.000000E+00  0.000000E+00
163  2.41224993E-02 -2.544502E+01  3.136715E-02  1.506351E-01 -1.969360E-02  0.000000E+00  0.000000E+00
164  2.53750840E-02 -2.542670E+01  3.552468E-02  1.512280E-01 -2.020180E-02  0.000000E+00  0.000000E+00
165  2.66774576E-02 -2.540845E+01  3.935247E-02  1.512987E-01 -2.068668E-02  0.000000E+00  0.000000E+00
166  2.80307940E-02 -2.539031E+01  4.283737E-02  1.508099E-01 -2.114491E-02  0.000000E+00  0.000000E+00
167  2.94362633E-02 -2.537232E+01  4.596876E-02  1.497258E-01 -2.157289E-02  0.000000E+00  0.000000E+00
168  3.08950319E-02 -2.535453E+01  4.873873E-02  1.480120E-01 -2.196703E-02  0.000000E+00  0.000000E+00
169  3.24082615E-02 -2.533698E+01  5.114217E-02  1.456359E-01 -2.232366E-02  0.000000E+00  0.000000E+00
170  3.39771082E-02 -2.531969E+01  5.317687E-02  1.425677E-01 -2.263907E-02  0.000000E+00  0.000000E+00
171  3.56027222E-02 -2.530272E+01  5.484352E-02  1.387802E-01 -2.290953E-02  0.000000E+00  0.000000E+00
172  3.72862471E-02 -2.528609E+01  5.614574E-02  1.342499E-01 -2.313129E-02  0.000000E+00  0.000000E+00
173  3.90288194E-02 -2.526983E+01  5.709002E-02  1.289572E-01 -2.330065E-02  0.000000E+00  0.000000E+00
174  4.08315678E-02 -2.525399E+01  5.768563E-02  1.228868E-01 -2.341394E-02  0.000000E+00  0.000000E+00
175  4.26956127E-02 -2.523859E+01  5.794450E-02  1.160288E-01 -2.346757E-02  0.000000E+00  0.000000E+00
176  4.46220661E-02 -2.522365E+01  5.788105E-02  1.083784E-01 -2.345807E-02  0.000000E+00  0.000000E+00
177  4.66120306E-02 -2.520920E+01  5.751197E-02  9.993728E-02 -2.338212E-02  0.000000E+00  0.000000E+00
178  4.86665997E-02 -2.519526E+01  5.685602E-02  9.071342E-02 -2.323658E-02  0.000000E+00  0.000000E+00
179  5.07868568E-02 -2.518185E+01  5.593373E-02  8.072195E-02 -2.301853E-02  0.000000E+00  0.000000E+00
180  5.29738751E-02 -2.516898E+01  5.476715E-02  6.998552E-02 -2.272529E-02  0.000000E+00  0.000000E+00
181  5.52287174E-02 -2.515666E+01  5.337952E-02  5.853467E-02 -2.235452E-02  0.000000E+00  0.000000E+00
182  5.75524357E-02 -2.514491E+01  5.179497E-02  4.640825E-02 -2.190419E-02  0.000000E+00  0.000000E+00
183  5.99460711E-02 -2.513372E+01  5.003822E-02  3.365369E-02 -2.137267E-02  0.000000E+00  0.000000E+00
184  6.24106534E-02 -2.512310E+01  4.813421E-02  2.032725E-02 -2.075876E-02  0.000000E+00  0.000000E+00
185  6.49472008E-02 -2.511306E+01  4.610786E-02  6.494204E-03 -2.006172E-02  0.000000E+00  0.000000E+00
