#      n =  0
#  kappa =  1
# energy =  2.00000000E+03
#     dn =  0.00000000E+00
#SelfEne =  2.72113860E+32
#     vc = -2.04008185E+02
#  ilast =  229
#    rfn =  0.00000000E+00
#    pdx =  1.99462557E+00
#   bqp0 =  2.16966113E+04
#   bqp1 =  0.00000000E+00
#    idx = 4
# LEPTON = 0
#   MASS =  1.00000000E+00
# CHARGE =  1.00000000E+00
#  EUNIT =  2.72113860E+01
#  RUNIT =  4.13413733E+16
#  LUNIT =  5.29177211E-01
#    AMU =  1.82288849E+03
#    FSC =  7.29735257E-03
#  phase =  3.46742075E+00


0    3.84615385E-08 -1.749943E-02 -4.202146E-07  2.650418E-12  5.738986E-08  0.000000E+00  0.000000E+00
1    4.21538616E-08 -1.917938E-02 -4.605438E-07  3.182159E-12  6.289919E-08  0.000000E+00  0.000000E+00
2    4.62005013E-08 -2.102054E-02 -5.047431E-07  3.821007E-12  6.893735E-08  0.000000E+00  0.000000E+00
3    5.06354359E-08 -2.303837E-02 -5.531834E-07  4.588493E-12  7.555486E-08  0.000000E+00  0.000000E+00
4    5.54958993E-08 -2.524981E-02 -6.062715E-07  5.510473E-12  8.280731E-08  0.000000E+00  0.000000E+00
5    6.08226920E-08 -2.767342E-02 -6.644531E-07  6.618004E-12  9.075559E-08  0.000000E+00  0.000000E+00
6    6.66605223E-08 -3.032954E-02 -7.282163E-07  7.948386E-12  9.946640E-08  0.000000E+00  0.000000E+00
7    7.30583799E-08 -3.324047E-02 -7.980964E-07  9.546417E-12  1.090129E-07  0.000000E+00  0.000000E+00
8    8.00699453E-08 -3.643062E-02 -8.746796E-07  1.146590E-11  1.194750E-07  0.000000E+00  0.000000E+00
9    8.77540382E-08 -3.992677E-02 -9.586083E-07  1.377144E-11  1.309407E-07  0.000000E+00  0.000000E+00
10   9.61751081E-08 -4.375822E-02 -1.050587E-06  1.654065E-11  1.435061E-07  0.000000E+00  0.000000E+00
11   1.05403773E-07 -4.795713E-02 -1.151386E-06  1.986670E-11  1.572765E-07  0.000000E+00  0.000000E+00
12   1.15517407E-07 -5.255867E-02 -1.261851E-06  2.386150E-11  1.723674E-07  0.000000E+00  0.000000E+00
13   1.26600788E-07 -5.760144E-02 -1.382907E-06  2.865945E-11  1.889052E-07  0.000000E+00  0.000000E+00
14   1.38746801E-07 -6.312768E-02 -1.515570E-06  3.442190E-11  2.070286E-07  0.000000E+00  0.000000E+00
15   1.52057213E-07 -6.918369E-02 -1.660951E-06  4.134265E-11  2.268895E-07  0.000000E+00  0.000000E+00
16   1.66643523E-07 -7.582021E-02 -1.820267E-06  4.965438E-11  2.486543E-07  0.000000E+00  0.000000E+00
17   1.82627885E-07 -8.309284E-02 -1.994853E-06  5.963650E-11  2.725051E-07  0.000000E+00  0.000000E+00
18   2.00144127E-07 -9.106243E-02 -2.186170E-06  7.162450E-11  2.986415E-07  0.000000E+00  0.000000E+00
19   2.19338863E-07 -9.979568E-02 -2.395820E-06  8.602118E-11  3.272825E-07  0.000000E+00  0.000000E+00
20   2.40372711E-07 -1.093657E-01 -2.625556E-06  1.033102E-10  3.586679E-07  0.000000E+00  0.000000E+00
21   2.63421624E-07 -1.198525E-01 -2.877301E-06  1.240723E-10  3.930600E-07  0.000000E+00  0.000000E+00
22   2.88678352E-07 -1.313438E-01 -3.153159E-06  1.490045E-10  4.307461E-07  0.000000E+00  0.000000E+00
23   3.16354039E-07 -1.439356E-01 -3.455437E-06  1.789439E-10  4.720420E-07  0.000000E+00  0.000000E+00
24   3.46679972E-07 -1.577333E-01 -3.786660E-06  2.148954E-10  5.172922E-07  0.000000E+00  0.000000E+00
25   3.79909496E-07 -1.728519E-01 -4.149595E-06  2.580651E-10  5.668750E-07  0.000000E+00  0.000000E+00
26   4.16320108E-07 -1.894178E-01 -4.547272E-06  3.099011E-10  6.212043E-07  0.000000E+00  0.000000E+00
27   4.56215749E-07 -2.075691E-01 -4.983011E-06  3.721416E-10  6.807339E-07  0.000000E+00  0.000000E+00
28   4.99929318E-07 -2.274575E-01 -5.460447E-06  4.468731E-10  7.459601E-07  0.000000E+00  0.000000E+00
29   5.47825411E-07 -2.492485E-01 -5.983561E-06  5.365999E-10  8.174272E-07  0.000000E+00  0.000000E+00
30   6.00303332E-07 -2.731240E-01 -6.556714E-06  6.443278E-10  8.957312E-07  0.000000E+00  0.000000E+00
31   6.57800375E-07 -2.992827E-01 -7.184682E-06  7.736643E-10  9.815241E-07  0.000000E+00  0.000000E+00
32   7.20795422E-07 -3.279424E-01 -7.872692E-06  9.289390E-10  1.075521E-06  0.000000E+00  0.000000E+00
33   7.89812877E-07 -3.593415E-01 -8.626470E-06  1.115347E-09  1.178503E-06  0.000000E+00  0.000000E+00
34   8.65426964E-07 -3.937411E-01 -9.452287E-06  1.339124E-09  1.291329E-06  0.000000E+00  0.000000E+00
35   9.48266440E-07 -4.314269E-01 -1.035701E-05  1.607751E-09  1.414936E-06  0.000000E+00  0.000000E+00
36   1.03901973E-06 -4.727119E-01 -1.134815E-05  1.930204E-09  1.550351E-06  0.000000E+00  0.000000E+00
37   1.13844057E-06 -5.179385E-01 -1.243393E-05  2.317253E-09  1.698699E-06  0.000000E+00  0.000000E+00
38   1.24735414E-06 -5.674816E-01 -1.362338E-05  2.781820E-09  1.861211E-06  0.000000E+00  0.000000E+00
39   1.36666378E-06 -6.217511E-01 -1.492634E-05  3.339402E-09  2.039234E-06  0.000000E+00  0.000000E+00
40   1.49735839E-06 -6.811961E-01 -1.635361E-05  4.008593E-09  2.234246E-06  0.000000E+00  0.000000E+00
41   1.64052040E-06 -7.463076E-01 -1.791701E-05  4.811692E-09  2.447859E-06  0.000000E+00  0.000000E+00
42   1.79733459E-06 -8.176226E-01 -1.962946E-05  5.775443E-09  2.681843E-06  0.000000E+00  0.000000E+00
43   1.96909768E-06 -8.957289E-01 -2.150512E-05  6.931920E-09  2.938130E-06  0.000000E+00  0.000000E+00
44   2.15722876E-06 -9.812687E-01 -2.355946E-05  8.319577E-09  3.218839E-06  0.000000E+00  0.000000E+00
45   2.36328080E-06 -1.074944E+00 -2.580944E-05  9.984522E-09  3.526287E-06  0.000000E+00  0.000000E+00
46   2.58895313E-06 -1.177523E+00 -2.827359E-05  1.198203E-08  3.863007E-06  0.000000E+00  0.000000E+00
47   2.83610504E-06 -1.289844E+00 -3.097219E-05  1.437835E-08  4.231774E-06  0.000000E+00  0.000000E+00
48   3.10677076E-06 -1.412823E+00 -3.392742E-05  1.725289E-08  4.635622E-06  0.000000E+00  0.000000E+00
49   3.40317565E-06 -1.547459E+00 -3.716354E-05  2.070079E-08  5.077868E-06  0.000000E+00  0.000000E+00
50   3.72775399E-06 -1.694842E+00 -4.070708E-05  2.483604E-08  5.562146E-06  0.000000E+00  0.000000E+00
51   4.08316835E-06 -1.856164E+00 -4.458707E-05  2.979519E-08  6.092421E-06  0.000000E+00  0.000000E+00
52   4.47233068E-06 -2.032720E+00 -4.883522E-05  3.574174E-08  6.673040E-06  0.000000E+00  0.000000E+00
53   4.89842538E-06 -2.225920E+00 -5.348623E-05  4.287150E-08  7.308746E-06  0.000000E+00  0.000000E+00
54   5.36493440E-06 -2.437298E+00 -5.857797E-05  5.141879E-08  8.004728E-06  0.000000E+00  0.000000E+00
55   5.87566467E-06 -2.668523E+00 -6.415189E-05  6.166402E-08  8.766663E-06  0.000000E+00  0.000000E+00
56   6.43477786E-06 -2.921402E+00 -7.025324E-05  7.394263E-08  9.600744E-06  0.000000E+00  0.000000E+00
57   7.04682300E-06 -3.197891E+00 -7.693146E-05  8.865565E-08  1.051375E-05  0.000000E+00  0.000000E+00
58   7.71677183E-06 -3.500105E+00 -8.424055E-05  1.062824E-07  1.151308E-05  0.000000E+00  0.000000E+00
59   8.45005737E-06 -3.830324E+00 -9.223948E-05  1.273955E-07  1.260681E-05  0.000000E+00  0.000000E+00
60   9.25261595E-06 -4.190995E+00 -1.009926E-04  1.526785E-07  1.380378E-05  0.000000E+00  0.000000E+00
61   1.01309329E-05 -4.584736E+00 -1.105701E-04  1.829467E-07  1.511361E-05  0.000000E+00  0.000000E+00
62   1.10920922E-05 -5.014336E+00 -1.210487E-04  2.191720E-07  1.654683E-05  0.000000E+00  0.000000E+00
63   1.21438305E-05 -5.482745E+00 -1.325119E-04  2.625118E-07  1.811491E-05  0.000000E+00  0.000000E+00
64   1.32945961E-05 -5.993059E+00 -1.450508E-04  3.143428E-07  1.983036E-05  0.000000E+00  0.000000E+00
65   1.45536127E-05 -6.548501E+00 -1.587645E-04  3.763000E-07  2.170684E-05  0.000000E+00  0.000000E+00
66   1.59309486E-05 -7.152372E+00 -1.737613E-04  4.503226E-07  2.375920E-05  0.000000E+00  0.000000E+00
67   1.74375923E-05 -7.807996E+00 -1.901586E-04  5.387059E-07  2.600365E-05  0.000000E+00  0.000000E+00
68   1.90855341E-05 -8.518643E+00 -2.080844E-04  6.441605E-07  2.845782E-05  0.000000E+00  0.000000E+00
69   2.08878548E-05 -9.287405E+00 -2.276777E-04  7.698785E-07  3.114089E-05  0.000000E+00  0.000000E+00
70   2.28588221E-05 -1.011703E+01 -2.490895E-04  9.196064E-07  3.407371E-05  0.000000E+00  0.000000E+00
71   2.50139945E-05 -1.100973E+01 -2.724834E-04  1.097724E-06  3.727895E-05  0.000000E+00  0.000000E+00
72   2.73703345E-05 -1.196684E+01 -2.980371E-04  1.309324E-06  4.078121E-05  0.000000E+00  0.000000E+00
73   2.99463309E-05 -1.298846E+01 -3.259425E-04  1.560294E-06  4.460716E-05  0.000000E+00  0.000000E+00
74   3.27621309E-05 -1.407296E+01 -3.564073E-04  1.857384E-06  4.878571E-05  0.000000E+00  0.000000E+00
75   3.58396831E-05 -1.521625E+01 -3.896558E-04  2.208256E-06  5.334818E-05  0.000000E+00  0.000000E+00
76   3.92028928E-05 -1.641099E+01 -4.259295E-04  2.621500E-06  5.832841E-05  0.000000E+00  0.000000E+00
77   4.28777882E-05 -1.764544E+01 -4.654888E-04  3.106577E-06  6.376301E-05  0.000000E+00  0.000000E+00
78   4.68927012E-05 -1.890226E+01 -5.086135E-04  3.673676E-06  6.969158E-05  0.000000E+00  0.000000E+00
79   5.12784620E-05 -2.015703E+01 -5.556044E-04  4.333420E-06  7.615697E-05  0.000000E+00  0.000000E+00
80   5.60686082E-05 -2.137704E+01 -6.067852E-04  5.096399E-06  8.320546E-05  0.000000E+00  0.000000E+00
81   6.12996110E-05 -2.252093E+01 -6.625033E-04  5.972458E-06  9.088682E-05  0.000000E+00  0.000000E+00
82   6.70111183E-05 -2.354087E+01 -7.231307E-04  6.969807E-06  9.925349E-05  0.000000E+00  0.000000E+00
83   7.32462153E-05 -2.438968E+01 -7.890581E-04  8.094115E-06  1.083609E-04  0.000000E+00  0.000000E+00
84   8.00517062E-05 -2.503471E+01 -8.606958E-04  9.348180E-06  1.182742E-04  0.000000E+00  0.000000E+00
85   8.74784145E-05 -2.547357E+01 -9.384985E-04  1.073297E-05  1.290732E-04  0.000000E+00  0.000000E+00
86   9.55815070E-05 -2.573833E+01 -1.022990E-03  1.225007E-05  1.408404E-04  0.000000E+00  0.000000E+00
87   1.04420839E-04 -2.588032E+01 -1.114740E-03  1.390412E-05  1.536501E-04  0.000000E+00  0.000000E+00
88   1.14061327E-04 -2.594857E+01 -1.214331E-03  1.570425E-05  1.675817E-04  0.000000E+00  0.000000E+00
89   1.24573341E-04 -2.597811E+01 -1.322379E-03  1.766446E-05  1.827322E-04  0.000000E+00  0.000000E+00
90   1.36033132E-04 -2.598953E+01 -1.439548E-03  1.980322E-05  1.992107E-04  0.000000E+00  0.000000E+00
91   1.48523279E-04 -2.599334E+01 -1.566557E-03  2.214302E-05  2.171329E-04  0.000000E+00  0.000000E+00
92   1.62133173E-04 -2.599424E+01 -1.704179E-03  2.470998E-05  2.366208E-04  0.000000E+00  0.000000E+00
93   1.76959527E-04 -2.599415E+01 -1.853237E-03  2.753395E-05  2.578052E-04  0.000000E+00  0.000000E+00
94   1.93106921E-04 -2.599372E+01 -2.014604E-03  3.064876E-05  2.808265E-04  0.000000E+00  0.000000E+00
95   2.10688377E-04 -2.599318E+01 -2.189208E-03  3.409270E-05  3.058362E-04  0.000000E+00  0.000000E+00
96   2.29825970E-04 -2.599256E+01 -2.378030E-03  3.790919E-05  3.329971E-04  0.000000E+00  0.000000E+00
97   2.50651477E-04 -2.599189E+01 -2.582102E-03  4.214751E-05  3.624844E-04  0.000000E+00  0.000000E+00
98   2.73307059E-04 -2.599116E+01 -2.802515E-03  4.686374E-05  3.944863E-04  0.000000E+00  0.000000E+00
99   2.97945983E-04 -2.599037E+01 -3.040410E-03  5.212173E-05  4.292044E-04  0.000000E+00  0.000000E+00
100  3.24733378E-04 -2.598951E+01 -3.296981E-03  5.799435E-05  4.668551E-04  0.000000E+00  0.000000E+00
101  3.53847035E-04 -2.598857E+01 -3.573473E-03  6.456477E-05  5.076696E-04  0.000000E+00  0.000000E+00
102  3.85478243E-04 -2.598756E+01 -3.871175E-03  7.192810E-05  5.518953E-04  0.000000E+00  0.000000E+00
103  4.19832665E-04 -2.598646E+01 -4.191419E-03  8.019315E-05  5.997966E-04  0.000000E+00  0.000000E+00
104  4.57131254E-04 -2.598526E+01 -4.535572E-03  8.948446E-05  6.516550E-04  0.000000E+00  0.000000E+00
105  4.97611207E-04 -2.598397E+01 -4.905026E-03  9.994471E-05  7.077708E-04  0.000000E+00  0.000000E+00
106  5.41526958E-04 -2.598256E+01 -5.301190E-03  1.117374E-04  7.684634E-04  0.000000E+00  0.000000E+00
107  5.89151211E-04 -2.598105E+01 -5.725479E-03  1.250498E-04  8.340717E-04  0.000000E+00  0.000000E+00
108  6.40776006E-04 -2.597940E+01 -6.179296E-03  1.400968E-04  9.049556E-04  0.000000E+00  0.000000E+00
109  6.96713823E-04 -2.597762E+01 -6.664012E-03  1.571244E-04  9.814959E-04  0.000000E+00  0.000000E+00
110  7.57298715E-04 -2.597570E+01 -7.180953E-03  1.764149E-04  1.064095E-03  0.000000E+00  0.000000E+00
111  8.22887481E-04 -2.597363E+01 -7.731365E-03  1.982913E-04  1.153178E-03  0.000000E+00  0.000000E+00
112  8.93860857E-04 -2.597138E+01 -8.316392E-03  2.231239E-04  1.249193E-03  0.000000E+00  0.000000E+00
113  9.70624738E-04 -2.596896E+01 -8.937039E-03  2.513363E-04  1.352608E-03  0.000000E+00  0.000000E+00
114  1.05361142E-03 -2.596636E+01 -9.594136E-03  2.834134E-04  1.463917E-03  0.000000E+00  0.000000E+00
115  1.14328086E-03 -2.596355E+01 -1.028829E-02  3.199092E-04  1.583635E-03  0.000000E+00  0.000000E+00
116  1.24012195E-03 -2.596052E+01 -1.101986E-02  3.614566E-04  1.712301E-03  0.000000E+00  0.000000E+00
117  1.34465380E-03 -2.595726E+01 -1.178885E-02  4.087777E-04  1.850472E-03  0.000000E+00  0.000000E+00
118  1.45742702E-03 -2.595376E+01 -1.259492E-02  4.626960E-04  1.998730E-03  0.000000E+00  0.000000E+00
119  1.57902501E-03 -2.595000E+01 -1.343726E-02  5.241485E-04  2.157675E-03  0.000000E+00  0.000000E+00
120  1.71006522E-03 -2.594597E+01 -1.431454E-02  5.942013E-04  2.327923E-03  0.000000E+00  0.000000E+00
121  1.85120041E-03 -2.594164E+01 -1.522486E-02  6.740648E-04  2.510110E-03  0.000000E+00  0.000000E+00
122  2.00311993E-03 -2.593701E+01 -1.616563E-02  7.651113E-04  2.704883E-03  0.000000E+00  0.000000E+00
123  2.16655083E-03 -2.593205E+01 -1.713350E-02  8.688949E-04  2.912901E-03  0.000000E+00  0.000000E+00
124  2.34225916E-03 -2.592674E+01 -1.812428E-02  9.871718E-04  3.134829E-03  0.000000E+00  0.000000E+00
125  2.53105097E-03 -2.592108E+01 -1.913284E-02  1.121924E-03  3.371338E-03  0.000000E+00  0.000000E+00
126  2.73377349E-03 -2.591503E+01 -2.015300E-02  1.275382E-03  3.623098E-03  0.000000E+00  0.000000E+00
127  2.95131607E-03 -2.590859E+01 -2.117750E-02  1.450055E-03  3.890769E-03  0.000000E+00  0.000000E+00
128  3.18461120E-03 -2.590173E+01 -2.219785E-02  1.648756E-03  4.175005E-03  0.000000E+00  0.000000E+00
129  3.43463532E-03 -2.589443E+01 -2.320429E-02  1.874633E-03  4.476437E-03  0.000000E+00  0.000000E+00
130  3.70240966E-03 -2.588669E+01 -2.418573E-02  2.131202E-03  4.795671E-03  0.000000E+00  0.000000E+00
131  3.98900094E-03 -2.587847E+01 -2.512968E-02  2.422376E-03  5.133281E-03  0.000000E+00  0.000000E+00
132  4.29552197E-03 -2.586977E+01 -2.602225E-02  2.752507E-03  5.489794E-03  0.000000E+00  0.000000E+00
133  4.62313218E-03 -2.586056E+01 -2.684812E-02  3.126415E-03  5.865688E-03  0.000000E+00  0.000000E+00
134  4.97303798E-03 -2.585084E+01 -2.759060E-02  3.549425E-03  6.261374E-03  0.000000E+00  0.000000E+00
135  5.34649313E-03 -2.584058E+01 -2.823166E-02  4.027404E-03  6.677191E-03  0.000000E+00  0.000000E+00
136  5.74479884E-03 -2.582977E+01 -2.875209E-02  4.566798E-03  7.113388E-03  0.000000E+00  0.000000E+00
137  6.16930386E-03 -2.581841E+01 -2.913165E-02  5.174662E-03  7.570114E-03  0.000000E+00  0.000000E+00
138  6.62140443E-03 -2.580648E+01 -2.934927E-02  5.858692E-03  8.047404E-03  0.000000E+00  0.000000E+00
139  7.10254405E-03 -2.579397E+01 -2.938338E-02  6.627255E-03  8.545161E-03  0.000000E+00  0.000000E+00
140  7.61421318E-03 -2.578089E+01 -2.921221E-02  7.489414E-03  9.063145E-03  0.000000E+00  0.000000E+00
141  8.15794878E-03 -2.576722E+01 -2.881427E-02  8.454942E-03  9.600957E-03  0.000000E+00  0.000000E+00
142  8.73533378E-03 -2.575296E+01 -2.816885E-02  9.534334E-03  1.015802E-02  0.000000E+00  0.000000E+00
143  9.34799633E-03 -2.573813E+01 -2.725655E-02  1.073881E-02  1.073355E-02  0.000000E+00  0.000000E+00
144  9.99760899E-03 -2.572271E+01 -2.605998E-02  1.208031E-02  1.132659E-02  0.000000E+00  0.000000E+00
145  1.06858878E-02 -2.570674E+01 -2.456445E-02  1.357145E-02  1.193590E-02  0.000000E+00  0.000000E+00
146  1.14145912E-02 -2.569020E+01 -2.275876E-02  1.522554E-02  1.256005E-02  0.000000E+00  0.000000E+00
147  1.21855190E-02 -2.567314E+01 -2.063595E-02  1.705646E-02  1.319732E-02  0.000000E+00  0.000000E+00
148  1.30005108E-02 -2.565555E+01 -1.819416E-02  1.907863E-02  1.384572E-02  0.000000E+00  0.000000E+00
149  1.38614448E-02 -2.563747E+01 -1.543740E-02  2.130692E-02  1.450297E-02  0.000000E+00  0.000000E+00
150  1.47702366E-02 -2.561893E+01 -1.237624E-02  2.375651E-02  1.516649E-02  0.000000E+00  0.000000E+00
151  1.57288369E-02 -2.559995E+01 -9.028589E-03  2.644277E-02  1.583340E-02  0.000000E+00  0.000000E+00
152  1.67392308E-02 -2.558058E+01 -5.419944E-03  2.938107E-02  1.650047E-02  0.000000E+00  0.000000E+00
153  1.78034354E-02 -2.556086E+01 -1.583862E-03  3.258656E-02  1.716416E-02  0.000000E+00  0.000000E+00
154  1.89234981E-02 -2.554082E+01  2.438159E-03  3.607398E-02  1.782059E-02  0.000000E+00  0.000000E+00
155  2.01014952E-02 -2.552052E+01  6.596996E-03  3.985736E-02  1.846554E-02  0.000000E+00  0.000000E+00
156  2.13395296E-02 -2.550000E+01  1.083662E-02  4.394971E-02  1.909448E-02  0.000000E+00  0.000000E+00
157  2.26397290E-02 -2.547932E+01  1.509522E-02  4.836267E-02  1.970253E-02  0.000000E+00  0.000000E+00
158  2.40042442E-02 -2.545854E+01  1.930680E-02  5.310618E-02  2.028451E-02  0.000000E+00  0.000000E+00
159  2.54352468E-02 -2.543772E+01  2.340313E-02  5.818799E-02  2.083493E-02  0.000000E+00  0.000000E+00
160  2.69349274E-02 -2.541691E+01  2.731601E-02  6.361325E-02  2.134804E-02  0.000000E+00  0.000000E+00
161  2.85054935E-02 -2.539617E+01  3.098014E-02  6.938401E-02  2.181785E-02  0.000000E+00  0.000000E+00
162  3.01491677E-02 -2.537557E+01  3.433527E-02  7.549873E-02  2.223812E-02  0.000000E+00  0.000000E+00
163  3.18681858E-02 -2.535518E+01  3.732931E-02  8.195168E-02  2.260248E-02  0.000000E+00  0.000000E+00
164  3.36647945E-02 -2.533504E+01  3.992023E-02  8.873243E-02  2.290442E-02  0.000000E+00  0.000000E+00
165  3.55412498E-02 -2.531523E+01  4.207788E-02  9.582524E-02  2.313735E-02  0.000000E+00  0.000000E+00
166  3.74998150E-02 -2.529580E+01  4.378505E-02  1.032085E-01  2.329470E-02  0.000000E+00  0.000000E+00
167  3.95427588E-02 -2.527681E+01  4.503764E-02  1.108542E-01  2.336995E-02  0.000000E+00  0.000000E+00
168  4.16723536E-02 -2.525831E+01  4.584408E-02  1.187271E-01  2.335674E-02  0.000000E+00  0.000000E+00
169  4.38908737E-02 -2.524035E+01  4.622391E-02  1.267848E-01  2.324894E-02  0.000000E+00  0.000000E+00
170  4.62005934E-02 -2.522298E+01  4.620578E-02  1.349766E-01  2.304076E-02  0.000000E+00  0.000000E+00
171  4.86037857E-02 -2.520623E+01  4.582502E-02  1.432434E-01  2.272683E-02  0.000000E+00  0.000000E+00
172  5.11027203E-02 -2.519016E+01  4.512120E-02  1.515175E-01  2.230235E-02  0.000000E+00  0.000000E+00
173  5.36996624E-02 -2.517477E+01  4.413569E-02  1.597222E-01  2.176315E-02  0.000000E+00  0.000000E+00
174  5.63968709E-02 -2.516011E+01  4.290963E-02  1.677715E-01  2.110585E-02  0.000000E+00  0.000000E+00
175  5.91965972E-02 -2.514619E+01  4.148234E-02  1.755709E-01  2.032797E-02  0.000000E+00  0.000000E+00
176  6.21010837E-02 -2.513303E+01  3.989026E-02  1.830166E-01  1.942807E-02  0.000000E+00  0.000000E+00
177  6.51125627E-02 -2.512064E+01  3.816645E-02  1.899969E-01  1.840584E-02  0.000000E+00  0.000000E+00
178  6.82332549E-02 -2.510901E+01  3.634031E-02  1.963922E-01  1.726226E-02  0.000000E+00  0.000000E+00
179  7.14653685E-02 -2.509814E+01  3.443794E-02  2.020761E-01  1.599969E-02  0.000000E+00  0.000000E+00
180  7.48110980E-02 -2.508804E+01  3.248246E-02  2.069167E-01  1.462199E-02  0.000000E+00  0.000000E+00
181  7.82726231E-02 -2.507867E+01  3.049443E-02  2.107780E-01  1.313465E-02  0.000000E+00  0.000000E+00
182  8.18521078E-02 -2.507004E+01  2.849243E-02  2.135213E-01  1.154482E-02  0.000000E+00  0.000000E+00
183  8.55516995E-02 -2.506211E+01  2.649342E-02  2.150076E-01  9.861437E-03  0.000000E+00  0.000000E+00
184  8.93735282E-02 -2.505486E+01  2.451300E-02  2.151000E-01  8.095247E-03  0.000000E+00  0.000000E+00
185  9.33197058E-02 -2.504826E+01  2.256571E-02  2.136660E-01  6.258836E-03  0.000000E+00  0.000000E+00
186  9.73923252E-02 -2.504228E+01  2.066496E-02  2.105808E-01  4.366638E-03  0.000000E+00  0.000000E+00
